Time(s),Position(V)
0.356000,3.186992
3.371000,3.094499
6.371000,3.006021
9.371000,2.924523
12.372000,2.846189
15.370000,2.767372
18.370000,2.688325
21.370000,2.608329
24.370000,2.527656
27.370000,2.448411
30.368000,2.362483
33.369000,2.278193
36.369000,2.192445
39.369000,2.105385
42.369000,2.019766
45.367000,1.934763
48.367000,1.849426
51.368000,1.770154
54.368000,1.688948
57.368000,1.608360
60.368000,1.528367
63.366000,1.450989
66.366000,1.372791
69.365000,1.298795
72.366000,1.223932
75.366000,1.153155
78.366000,1.083374
81.366000,1.010306
84.366000,0.946356
87.364000,0.877190
90.365000,0.817163
93.365000,0.752712
96.365000,0.692542
99.365000,0.632905
102.363000,0.576793
105.363000,0.519550
108.363000,0.464795
111.364000,0.411804
114.364000,0.360550
117.362000,0.314155
120.362000,0.267429
123.362000,0.221988
126.362000,0.180325
129.363000,0.141832
132.361000,0.103854
135.362000,0.065943
138.362000,0.031544
141.360000,0.001975
144.360000,-0.029296
147.360000,-0.059110
150.361000,-0.081917
153.361000,-0.106627
156.359000,-0.128496
159.359000,-0.146608
162.359000,-0.162324
165.359000,-0.175521
168.360000,-0.188602
171.360000,-0.198675
174.358000,-0.206561
177.358000,-0.211565
180.358000,-0.212048
183.358000,-0.204600
186.358000,-0.183119
189.357000,-0.180443
192.357000,-0.198022
195.357000,-0.173111
198.357000,-0.156973
201.357000,-0.147475
204.357000,-0.138946
207.357000,-0.118872
210.357000,-0.098465
213.355000,-0.076406
216.355000,-0.051852
219.355000,-0.026502
222.355000,0.001798
225.355000,0.019309
228.356000,0.059674
231.354000,0.098326
234.354000,0.108484
237.354000,0.162651
240.354000,0.212296
243.354000,0.252614
246.353000,0.297800
249.353000,0.341772
252.352000,0.387760
255.352000,0.416920
258.352000,0.484954
261.352000,0.532764
264.352000,0.587481
267.353000,0.640918
270.351000,0.694527
273.351000,0.748623
276.351000,0.783705
279.351000,0.848060
282.351000,0.906636
285.349000,0.985150
288.350000,1.030105
291.350000,1.110179
294.350000,1.170224
297.350000,1.234674
300.348000,1.280903
303.348000,1.354396
306.349000,1.426802
309.349000,1.498268
312.349000,1.564330
315.349000,1.631099
318.347000,1.697443
321.347000,1.763947
324.347000,1.829050
327.348000,1.897301
330.348000,1.967680
333.346000,2.039068
336.346000,2.108271
339.346000,2.177515
342.346000,2.246099
345.347000,2.317124
348.345000,2.389152
351.345000,2.456376
354.345000,2.516241
357.345000,2.577485
360.345000,2.640460
363.344000,2.700546
366.344000,2.760856
369.344000,2.816610
372.344000,2.872749
375.344000,2.927470
378.344000,2.983391
381.342000,3.038309
384.343000,3.094781
387.343000,3.151188
390.343000,3.212202
393.343000,3.273827
396.341000,3.345464
399.341000,3.409347
402.341000,3.467168
405.342000,3.517899
408.342000,3.563890
411.341000,3.609283
414.341000,3.649329
417.341000,3.688215
420.339000,3.724783
423.340000,3.759478
426.340000,3.792001
429.340000,3.823833
432.340000,3.857848
435.340000,3.893573
438.338000,3.926728
441.338000,3.962664
444.339000,3.996444
447.339000,4.030921
450.339000,4.066538
453.337000,4.099621
456.337000,4.127252
459.337000,4.151636
462.338000,4.176252
465.338000,4.198110
468.336000,4.217868
471.336000,4.232683
474.336000,4.246080
477.336000,4.258862
480.336000,4.266943
483.335000,4.266021
486.335000,4.277784
489.335000,4.262972
492.335000,4.280214
495.335000,4.270566
498.335000,4.283569
501.334000,4.269737
504.334000,4.274316
507.334000,4.258291
510.334000,4.254456
513.334000,4.248589
516.332000,4.235936
519.332000,4.226377
522.333000,4.214662
525.332000,4.198596
528.332000,4.180144
531.332000,4.165720
534.332000,4.143270
537.331000,4.121881
540.332000,4.093774
543.332000,4.064678
546.332000,4.034453
549.331000,4.000734
552.331000,3.964316
555.329000,3.929719
558.329000,3.897054
561.330000,3.862220
564.330000,3.831135
567.330000,3.797130
570.329000,3.767555
573.329000,3.734920
576.329000,3.701500
579.328000,3.666312
582.328000,3.632552
585.328000,3.595219
588.328000,3.556329
591.328000,3.515356
594.328000,3.471159
597.326000,3.424930
600.327000,3.373812
603.327000,3.319761
606.327000,3.262480
609.327000,3.203618
612.325000,3.146263
615.325000,3.093585
618.326000,3.040080
621.326000,2.987178
624.326000,2.938185
627.324000,2.887231
630.324000,2.839961
633.324000,2.788871
636.323000,2.738725
639.324000,2.686866
642.324000,2.634467
645.324000,2.582363
648.324000,2.528577
651.322000,2.474267
654.322000,2.421056
657.323000,2.363394
660.323000,2.307823
663.323000,2.247554
666.323000,2.188393
669.321000,2.130918
672.321000,2.073709
675.321000,2.015911
678.322000,1.958647
681.322000,1.901227
684.320000,1.844657
687.320000,1.791781
690.320000,1.738066
693.320000,1.684753
696.321000,1.631670
699.319000,1.579230
702.319000,1.528534
705.319000,1.477885
708.319000,1.429759
711.319000,1.379573
714.317000,1.331566
717.318000,1.284755
720.318000,1.251767
723.318000,1.193989
726.318000,1.150031
729.318000,1.107058
732.316000,1.066180
735.317000,1.022731
738.317000,0.994978
741.317000,0.949038
744.317000,0.908554
747.315000,0.870317
750.315000,0.844583
753.315000,0.804833
756.316000,0.769689
759.316000,0.737544
762.316000,0.706915
765.314000,0.678669
768.314000,0.651779
771.314000,0.625498
774.315000,0.604798
777.315000,0.576144
780.313000,0.553854
783.313000,0.532318
786.313000,0.511799
789.313000,0.499027
792.313000,0.477057
795.312000,0.460889
798.312000,0.447723
801.313000,0.434305
804.311000,0.425973
807.311000,0.413045
810.311000,0.406232
813.312000,0.404179
816.312000,0.401242
819.310000,0.391057
822.310000,0.389102
825.310000,0.407697
828.310000,0.403169
831.310000,0.397938
834.309000,0.414959
837.309000,0.424668
840.310000,0.423478
843.308000,0.438493
846.308000,0.450667
849.308000,0.462561
852.308000,0.473579
855.308000,0.487469
858.308000,0.498001
861.308000,0.516579
864.308000,0.534317
867.306000,0.556179
870.306000,0.575685
873.307000,0.594797
876.307000,0.613640
879.307000,0.646363
882.305000,0.670802
885.305000,0.698953
888.305000,0.726288
891.306000,0.753107
894.306000,0.782094
897.306000,0.814348
900.304000,0.846633
903.304000,0.863715
906.304000,0.903951
909.304000,0.949068
912.305000,0.988434
915.303000,0.997803
918.303000,1.059500
921.303000,1.098349
924.303000,1.136250
927.303000,1.173756
930.302000,1.215008
933.302000,1.252154
936.302000,1.287692
939.302000,1.336624
942.302000,1.383044
945.302000,1.425013
948.301000,1.467952
951.302000,1.508572
954.302000,1.555413
957.300000,1.599096
960.300000,1.644795
963.300000,1.689865
966.300000,1.735000
969.299000,1.781495
972.299000,1.826415
975.299000,1.871988
978.298000,1.919438
981.298000,1.968220
984.298000,2.016221
987.298000,2.062620
990.299000,2.112609
993.299000,2.155439
996.297000,2.205061
999.297000,2.252521
1002.297000,2.299712
1005.297000,2.345815
1008.298000,2.389573
1011.296000,2.434327
1014.296000,2.472986
1017.296000,2.516710
1020.296000,2.557109
1023.296000,2.598929
1026.294000,2.638315
1029.295000,2.676104
1032.295000,2.711339
1035.295000,2.748053
1038.295000,2.784421
1041.295000,2.817878
1044.293000,2.852658
1047.294000,2.883556
1050.294000,2.917887
1053.294000,2.950100
1056.294000,2.980634
1059.292000,3.009649
1062.292000,3.035610
1065.292000,3.064516
1068.293000,3.099551
1071.293000,3.127453
1074.291000,3.159779
1077.291000,3.186852
1080.291000,3.204842
1083.290000,3.255076
1086.291000,3.288765
1089.291000,3.323422
1092.291000,3.350975
1095.291000,3.378976
1098.290000,3.402942
1101.290000,3.420725
1104.290000,3.440034
1107.289000,3.460274
1110.289000,3.472200
1113.289000,3.487790
1116.289000,3.503430
1119.289000,3.514995
1122.287000,3.526050
1125.288000,3.518001
1128.288000,3.541763
1131.287000,3.553607
1134.287000,3.556612
1137.287000,3.563360
1140.287000,3.551621
1143.287000,3.556612
1146.287000,3.574683
1149.287000,3.573398
1152.287000,3.580683
1155.285000,3.558369
1158.285000,3.562615
1161.285000,3.556285
1164.286000,3.553307
1167.285000,3.543585
1170.285000,3.535902
1173.285000,3.531211
1176.285000,3.522760
1179.283000,3.518456
1182.283000,3.509784
1185.284000,3.497179
1188.284000,3.483190
1191.284000,3.481103
1194.282000,3.458170
1197.282000,3.445242
1200.282000,3.431902
1203.283000,3.411536
1206.283000,3.394420
1209.281000,3.373340
1212.281000,3.354439
1215.281000,3.329317
1218.281000,3.307373
1221.281000,3.283411
1224.282000,3.256946
1227.280000,3.232283
1230.280000,3.205155
1233.280000,3.181563
1236.280000,3.155866
1239.280000,3.124686
1242.279000,3.101597
1245.279000,3.074888
1248.279000,3.046352
1251.279000,3.020792
1254.279000,2.993960
1257.277000,2.965384
1260.277000,2.941166
1263.278000,2.914164
1266.278000,2.886591
1269.278000,2.859171
1272.278000,2.832363
1275.276000,2.803614
1278.276000,2.778567
1281.277000,2.747761
1284.277000,2.719029
1287.277000,2.691211
1290.275000,2.661564
1293.275000,2.632033
1296.275000,2.602682
1299.275000,2.570968
1302.276000,2.541182
1305.276000,2.508799
1308.274000,2.477038
1311.274000,2.448251
1314.274000,2.414263
1317.274000,2.383359
1320.273000,2.350993
1323.273000,2.318130
1326.273000,2.286026
1329.273000,2.252935
1332.273000,2.218115
1335.273000,2.185514
1338.271000,2.152553
1341.272000,2.121386
1344.272000,2.089829
1347.272000,2.058241
1350.272000,2.025008
1353.270000,1.994447
1356.270000,1.963848
1359.271000,1.935517
1362.271000,1.903974
1365.271000,1.876064
1368.271000,1.846207
1371.269000,1.817886
1374.269000,1.792696
1377.269000,1.765340
1380.270000,1.737414
1383.270000,1.715120
1386.268000,1.689519
1389.268000,1.664138
1392.268000,1.640869
1395.268000,1.616933
1398.269000,1.596394
1401.267000,1.572751
1404.267000,1.554434
1407.267000,1.531196
1410.267000,1.510265
1413.267000,1.493122
1416.265000,1.475567
1419.266000,1.458933
1422.266000,1.442137
1425.266000,1.427074
1428.266000,1.409328
1431.266000,1.394401
1434.264000,1.380477
1437.265000,1.368963
1440.265000,1.355583
1443.265000,1.347322
1446.265000,1.333384
1449.263000,1.324328
1452.263000,1.319018
1455.263000,1.311536
1458.264000,1.308708
1461.264000,1.296330
1464.264000,1.294685
1467.262000,1.311366
1470.262000,1.292390
1473.262000,1.315401
1476.263000,1.288865
1479.263000,1.285139
1482.261000,1.282518
1485.261000,1.287553
1488.261000,1.309564
1491.261000,1.308028
1494.261000,1.287876
1497.260000,1.308711
1500.260000,1.315955
1503.260000,1.328680
1506.260000,1.328510
1509.260000,1.333813
1512.260000,1.333041
1515.259000,1.355940
1518.259000,1.367372
1521.259000,1.374555
1524.259000,1.385661
1527.258000,1.378509
1530.258000,1.398171
1533.258000,1.418775
1536.257000,1.438900
1539.257000,1.436796
1542.257000,1.467374
1545.257000,1.477984
1548.257000,1.488104
1551.257000,1.508297
1554.257000,1.527126
1557.257000,1.542801
1560.255000,1.561566
1563.255000,1.579162
1566.255000,1.593803
1569.255000,1.615798
1572.255000,1.637589
1575.256000,1.655769
1578.254000,1.679283
1581.254000,1.699197
1584.254000,1.703477
1587.254000,1.742170
1590.254000,1.763647
1593.253000,1.785975
1596.253000,1.811702
1599.253000,1.831184
1602.253000,1.856483
1605.253000,1.877074
1608.251000,1.903658
1611.251000,1.929592
1614.252000,1.951678
1617.252000,1.978792
1620.252000,2.003965
1623.252000,2.029444
1626.250000,2.054261
1629.250000,2.081215
1632.250000,2.105273
1635.251000,2.129610
1638.251000,2.153032
1641.249000,2.179306
1644.249000,2.205669
1647.249000,2.229656
1650.249000,2.257762
1653.250000,2.281535
1656.248000,2.304553
1659.248000,2.328481
1662.248000,2.352142
1665.248000,2.380293
1668.248000,2.400621
1671.246000,2.427229
1674.247000,2.451532
1677.247000,2.469967
1680.247000,2.492036
1683.247000,2.513290
1686.247000,2.534866
1689.245000,2.553975
1692.246000,2.570017
1695.246000,2.594357
1698.246000,2.615376
1701.246000,2.631397
1704.244000,2.652243
1707.244000,2.671035
1710.244000,2.688345
1713.245000,2.709765
1716.244000,2.723264
1719.244000,2.745116
1722.244000,2.759180
1725.244000,2.775283
1728.243000,2.789261
1731.244000,2.807258
1734.244000,2.820999
1737.242000,2.832639
1740.242000,2.848035
1743.242000,2.859702
1746.242000,2.873283
1749.242000,2.888002
1752.241000,2.899526
1755.241000,2.911346
1758.241000,2.915993
1761.241000,2.931542
1764.241000,2.935510
1767.239000,2.948332
1770.241000,2.925964
1773.241000,2.953795
1776.239000,2.958119
1779.239000,2.966530
1782.239000,2.957174
1785.239000,2.973883
1788.239000,2.982558
1791.238000,2.966859
1794.238000,2.988324
1797.238000,2.969633
1800.238000,2.990244
1803.238000,2.990652
1806.238000,2.975712
1809.237000,2.981695
1812.237000,2.988742
1815.237000,2.997203
1818.237000,2.996588
1821.237000,2.974620
1824.235000,2.983072
1827.235000,2.972686
1830.236000,2.968277
1833.236000,2.961624
1836.236000,2.957797
1839.235000,2.950498
1842.234000,2.946177
1845.234000,2.945674
1848.235000,2.932052
1851.235000,2.928289
1854.235000,2.918659
1857.233000,2.912988
1860.233000,2.903997
1863.233000,2.890035
1866.233000,2.885116
1869.234000,2.872344
1872.232000,2.864322
1875.232000,2.851009
1878.232000,2.838632
1881.232000,2.830089
1884.232000,2.816090
1887.231000,2.803849
1890.232000,2.790183
1893.232000,2.779981
1896.230000,2.762674
1899.230000,2.751293
1902.230000,2.737277
1905.230000,2.720759
1908.231000,2.705509
1911.229000,2.691262
1914.229000,2.673364
1917.229000,2.659980
1920.229000,2.642840
1923.229000,2.628300
1926.230000,2.610113
1929.228000,2.592769
1932.228000,2.575520
1935.228000,2.559771
1938.228000,2.541067
1941.228000,2.523553
1944.226000,2.504533
1947.228000,2.486033
1950.228000,2.465548
1953.226000,2.452769
1956.226000,2.430758
1959.226000,2.414525
1962.226000,2.391929
1965.227000,2.374517
1968.225000,2.355443
1971.225000,2.337786
1974.225000,2.317239
1977.225000,2.308041
1980.225000,2.278744
1983.225000,2.259959
1986.224000,2.236897
1989.224000,2.219549
1992.224000,2.202273
1995.224000,2.180656
1998.224000,2.161728
2001.222000,2.144693
2004.223000,2.128005
2007.223000,2.109019
2010.223000,2.091712
2013.223000,2.072604
2016.221000,2.056983
2019.221000,2.039952
2022.221000,2.019416
2025.222000,2.003343
2028.222000,1.987828
2031.221000,1.971637
2034.221000,1.955459
2037.221000,1.939080
2040.219000,1.925958
2043.220000,1.909008
2046.220000,1.894353
2049.220000,1.880082
2052.220000,1.864312
2055.218000,1.854049
2058.218000,1.840846
2061.218000,1.827278
2064.219000,1.816781
2067.219000,1.817814
2070.218000,1.794555
2073.218000,1.780733
2076.218000,1.772996
2079.216000,1.766044
2082.217000,1.751627
2085.217000,1.741106
2088.217000,1.739895
2091.217000,1.728432
2094.215000,1.722901
2097.215000,1.712615
2100.215000,1.704616
2103.216000,1.701903
2106.216000,1.699714
2109.216000,1.694567
2112.214000,1.687139
2115.214000,1.691674
2118.214000,1.674072
2121.215000,1.667568
2124.215000,1.667953
2127.213000,1.670149
2130.213000,1.688125
2133.213000,1.671835
2136.212000,1.661976
2139.212000,1.663934
2142.213000,1.681724
2145.213000,1.667636
2148.213000,1.679609
2151.211000,1.691286
2154.211000,1.685902
2157.211000,1.700999
2160.212000,1.690566
2163.212000,1.694135
2166.212000,1.692894
2169.210000,1.709100
2172.210000,1.721939
2175.210000,1.723595
2178.210000,1.734422
2181.211000,1.714852
2184.209000,1.740296
2187.209000,1.740031
2190.209000,1.755808
2193.209000,1.772870
2196.209000,1.757773
2199.208000,1.781515
2202.208000,1.796772
2205.208000,1.808360
2208.208000,1.812307
2211.208000,1.827340
2214.206000,1.837790
2217.206000,1.847145
2220.207000,1.856429
2223.207000,1.872165
2226.207000,1.856551
2229.207000,1.892059
2232.205000,1.904793
2235.205000,1.918272
2238.206000,1.932798
2241.206000,1.944652
2244.206000,1.959065
2247.204000,1.971586
2250.204000,1.988250
2253.204000,1.995066
2256.204000,2.010238
2259.205000,2.026307
2262.203000,2.044881
2265.203000,2.054580
2268.203000,2.073260
2271.203000,2.090186
2274.203000,2.102829
2277.204000,2.119527
2280.202000,2.134461
2283.202000,2.146281
2286.202000,2.163931
2289.202000,2.176192
2292.202000,2.193264
2295.200000,2.207818
2298.201000,2.218815
2301.201000,2.238205
2304.201000,2.253544
2307.201000,2.271265
2310.199000,2.286532
2313.199000,2.299844
2316.200000,2.316689
2319.200000,2.333441
2322.200000,2.345472
2325.200000,2.357747
2328.198000,2.375958
2331.198000,2.388363
2334.198000,2.403613
2337.199000,2.419165
2340.199000,2.427878
2343.197000,2.443380
2346.197000,2.461285
2349.197000,2.467621
2352.197000,2.479387
2355.198000,2.494617
2358.198000,2.507602
2361.196000,2.513793
2364.196000,2.531283
2367.196000,2.539275
2370.196000,2.539109
2373.196000,2.554549
2376.195000,2.569816
2379.195000,2.582884
2382.195000,2.588353
2385.195000,2.601101
2388.195000,2.612472
2391.193000,2.612632
2394.194000,2.611021
2397.194000,2.633196
2400.194000,2.637659
2403.194000,2.632247
2406.192000,2.657383
2409.192000,2.644594
2412.192000,2.666745
2415.193000,2.675675
2418.193000,2.678514
2421.191000,2.667088
2424.191000,2.693359
2427.191000,2.683953
2430.191000,2.704679
2433.192000,2.687247
2436.192000,2.686574
2439.190000,2.708647
2442.190000,2.691721
2445.190000,2.714052
2448.190000,2.695671
2451.190000,2.710924
2454.189000,2.714480
2457.189000,2.703741
2460.189000,2.715299
2463.189000,2.723917
2466.189000,2.703065
2469.189000,2.722268
2472.188000,2.721422
2475.188000,2.705295
2478.188000,2.695701
2481.188000,2.689905
2484.188000,2.688923
2487.186000,2.691792
2490.186000,2.684412
2493.187000,2.679289
2496.187000,2.675091
2499.187000,2.669600
2502.185000,2.672347
2505.185000,2.663318
2508.185000,2.670522
2511.186000,2.665895
2514.186000,2.656404
2517.186000,2.641810
2520.184000,2.642197
2523.184000,2.632319
2526.184000,2.624432
2529.184000,2.619707
2532.185000,2.612163
2535.183000,2.604066
2538.183000,2.595852
2541.183000,2.591556
2544.183000,2.583451
2547.183000,2.573338
2550.182000,2.569932
2553.182000,2.556531
2556.182000,2.546686
2559.182000,2.539554
2562.182000,2.527897
2565.180000,2.520612
2568.181000,2.509187
2571.182000,2.501915
2574.180000,2.491040
2577.180000,2.479972
2580.180000,2.471249
2583.180000,2.461489
2586.180000,2.458694
2589.179000,2.442819
2592.179000,2.430204
2595.179000,2.419988
2598.179000,2.412088
2601.178000,2.397946
2604.178000,2.390365
2607.178000,2.378365
2610.179000,2.368847
2613.177000,2.354834
2616.177000,2.343392
2619.177000,2.336161
2622.177000,2.321115
2625.177000,2.311729
2628.178000,2.302272
2631.176000,2.292821
2634.176000,2.278628
2637.176000,2.266282
2640.176000,2.256994
2643.176000,2.245926
2646.174000,2.234201
2649.175000,2.224978
2652.175000,2.216343
2655.175000,2.205064
2658.175000,2.199655
2661.173000,2.182614
2664.173000,2.175594
2667.174000,2.162714
2670.174000,2.155643
2673.174000,2.150102
2676.174000,2.136551
2679.172000,2.130663
2682.172000,2.117314
2685.172000,2.107890
2688.173000,2.102801
2691.173000,2.094014
2694.171000,2.082445
2697.171000,2.079015
2700.171000,2.069351
2703.171000,2.059465
2706.172000,2.051340
2709.170000,2.043369
2712.170000,2.039670
2715.170000,2.032599
2718.170000,2.022690
2721.170000,2.022353
2724.170000,2.012379
2727.169000,2.004591
2730.169000,1.996657
2733.169000,1.993363
2736.169000,1.983620
2739.169000,1.988743
2742.167000,1.980523
2745.168000,1.975563
2748.168000,1.971752
2751.168000,1.969094
2754.168000,1.968648
2757.168000,1.961411
2760.166000,1.961081
2763.166000,1.960578
2766.167000,1.974982
